time	V(out_fs)
0.000000000000000e+00	0.000000e+00
8.052684228076026e-10	5.839728e-11
8.345067403420189e-10	-1.462869e-07
8.637450578764352e-10	-1.265915e-07
8.929833754108515e-10	5.914469e-08
9.222216929452677e-10	4.109216e-07
9.514600104796839e-10	9.287393e-07
9.806983280141002e-10	1.612598e-06
1.009936645548516e-09	2.462497e-06
1.029714666793689e-09	3.302475e-06
1.049492688038862e-09	4.422858e-06
1.069270709284035e-09	5.823648e-06
1.089048730529208e-09	7.504843e-06
1.108826751774381e-09	9.466443e-06
1.128604773019554e-09	1.170845e-05
1.148382794264726e-09	1.423086e-05
1.177821178492717e-09	1.862872e-05
1.207259562720707e-09	2.432232e-05
1.236697946948697e-09	3.131167e-05
1.266136331176687e-09	3.959678e-05
1.295574715404677e-09	4.917763e-05
1.325013099632667e-09	6.005424e-05
1.354451483860657e-09	7.222659e-05
1.383032442104517e-09	8.562811e-05
1.411613400348378e-09	1.009461e-04
1.440194358592238e-09	1.181806e-04
1.468775316836098e-09	1.373316e-04
1.497356275079958e-09	1.583990e-04
1.525937233323818e-09	1.813829e-04
1.554518191567678e-09	2.062834e-04
1.578582991660444e-09	2.290886e-04
1.602647791753209e-09	2.538494e-04
1.626712591845974e-09	2.805658e-04
1.650777391938739e-09	3.092377e-04
1.674842192031504e-09	3.398651e-04
1.698906992124269e-09	3.724480e-04
1.722971792217035e-09	4.069865e-04
1.756181321134408e-09	4.577741e-04
1.789390850051782e-09	5.138579e-04
1.822600378969156e-09	5.752379e-04
1.855809907886529e-09	6.419143e-04
1.889019436803903e-09	7.138869e-04
1.922228965721277e-09	7.911557e-04
1.955438494638650e-09	8.737209e-04
2.020776462274466e-09	1.053259e-03
2.086114429910283e-09	1.262571e-03
2.151452397546099e-09	1.501659e-03
2.216790365181915e-09	1.770520e-03
2.282128332817731e-09	2.069156e-03
2.347466300453548e-09	2.397567e-03
2.412804268089364e-09	2.755752e-03
2.450016672224120e-09	2.975097e-03
2.487229076358877e-09	3.205392e-03
2.524441480493634e-09	3.446635e-03
2.561653884628390e-09	3.698828e-03
2.598866288763147e-09	3.961971e-03
2.636078692897904e-09	4.236062e-03
2.673291097032660e-09	4.521103e-03
2.734111402525674e-09	5.011008e-03
2.794931708018687e-09	5.533664e-03
2.855752013511701e-09	6.089071e-03
2.916572319004714e-09	6.677229e-03
2.977392624497728e-09	7.298137e-03
3.038212929990741e-09	7.951796e-03
3.099033235483755e-09	8.638206e-03
3.131642701244788e-09	9.020166e-03
3.164252167005822e-09	9.411563e-03
3.196861632766855e-09	9.812397e-03
3.229471098527889e-09	1.022267e-02
3.262080564288922e-09	1.064237e-02
3.294690030049955e-09	1.107152e-02
3.327299495810989e-09	1.151009e-02
3.381433198095695e-09	1.225871e-02
3.435566900380402e-09	1.303307e-02
3.489700602665108e-09	1.383318e-02
3.543834304949815e-09	1.465903e-02
3.597968007234522e-09	1.551064e-02
3.652101709519228e-09	1.638798e-02
3.706235411803935e-09	1.729107e-02
3.757252417473127e-09	1.816542e-02
3.808269423142320e-09	1.906050e-02
3.859286428811513e-09	1.997633e-02
3.910303434480705e-09	2.091289e-02
3.961320440149897e-09	2.187020e-02
4.012337445819090e-09	2.284826e-02
4.063354451488283e-09	2.384705e-02
4.126404095745712e-09	2.510745e-02
4.189453740003141e-09	2.639622e-02
4.252503384260571e-09	2.771337e-02
4.315553028518001e-09	2.905889e-02
4.378602672775430e-09	3.043279e-02
4.441652317032859e-09	3.183506e-02
4.504701961290289e-09	3.326571e-02
4.607222643280417e-09	3.565070e-02
4.709743325270546e-09	3.810566e-02
4.812264007260675e-09	4.063058e-02
4.914784689250803e-09	4.322548e-02
5.017305371240931e-09	4.589034e-02
5.119826053231060e-09	4.862517e-02
5.222346735221188e-09	5.142997e-02
5.463396261237730e-09	5.826155e-02
5.706902300766923e-09	6.548460e-02
5.911570523507838e-09	7.179537e-02
5.995941504310963e-09	7.445862e-02
6.080312485114088e-09	7.715848e-02
6.164683465917212e-09	7.989495e-02
6.249054446720337e-09	8.266804e-02
6.333425427523462e-09	8.547773e-02
6.417796408326587e-09	8.832404e-02
6.502167389129711e-09	9.120697e-02
6.552184061353785e-09	9.293274e-02
6.564176303363455e-09	9.334856e-02
6.591293159140012e-09	9.429097e-02
6.618410014916569e-09	9.523711e-02
6.645526870693125e-09	9.618697e-02
6.672643726469682e-09	9.714056e-02
6.699760582246238e-09	9.809788e-02
6.726877438022796e-09	9.905892e-02
6.753994293799352e-09	1.000237e-01
6.853778560597606e-09	1.036072e-01
6.953562827395860e-09	1.072477e-01
7.053347094194114e-09	1.109454e-01
7.153131360992368e-09	1.147001e-01
7.252915627790622e-09	1.185120e-01
7.352699894588876e-09	1.223809e-01
7.452484161387130e-09	1.263070e-01
7.503872719477919e-09	1.283507e-01
7.555261277568707e-09	1.304076e-01
7.606649835659497e-09	1.324777e-01
7.658038393750285e-09	1.345610e-01
7.709426951841075e-09	1.366575e-01
7.760815509931863e-09	1.387672e-01
7.812204068022653e-09	1.408902e-01
7.846272567037253e-09	1.423036e-01
7.880341066051854e-09	1.437223e-01
7.914409565066454e-09	1.451463e-01
7.948478064081056e-09	1.465757e-01
7.982546563095657e-09	1.480103e-01
8.016615062110257e-09	1.494503e-01
8.050683561124858e-09	1.508955e-01
8.089896689486561e-09	1.525657e-01
8.129109817848263e-09	1.542439e-01
8.168322946209966e-09	1.559304e-01
8.207536074571668e-09	1.576250e-01
8.246749202933372e-09	1.593277e-01
8.285962331295073e-09	1.610385e-01
8.325175459656777e-09	1.627575e-01
8.343410051972754e-09	1.635599e-01
8.361644644288734e-09	1.643643e-01
8.379879236604712e-09	1.651706e-01
8.398113828920689e-09	1.659788e-01
8.416348421236667e-09	1.667890e-01
8.434583013552646e-09	1.676012e-01
8.452817605868624e-09	1.684153e-01
8.481115881188046e-09	1.696833e-01
8.520649376375432e-09	1.714615e-01
8.560182871562820e-09	1.732493e-01
8.599716366750206e-09	1.750467e-01
8.639249861937594e-09	1.768537e-01
8.678783357124981e-09	1.786702e-01
8.718316852312368e-09	1.804964e-01
8.757850347499755e-09	1.823321e-01
8.814879205111729e-09	1.849983e-01
8.871908062723703e-09	1.876851e-01
8.928936920335678e-09	1.903924e-01
8.985965777947650e-09	1.931202e-01
9.042994635559625e-09	1.958685e-01
9.100023493171599e-09	1.986373e-01
9.157052350783573e-09	2.014266e-01
9.213356833760160e-09	2.042007e-01
9.269661316736745e-09	2.069923e-01
9.325965799713332e-09	2.098014e-01
9.382270282689918e-09	2.126281e-01
9.438574765666505e-09	2.154723e-01
9.494879248643090e-09	2.183340e-01
9.551183731619677e-09	2.212133e-01
9.574277204241502e-09	2.223984e-01
9.597370676863325e-09	2.235860e-01
9.620464149485151e-09	2.247760e-01
9.643557622106974e-09	2.259686e-01
9.666651094728799e-09	2.271637e-01
9.689744567350623e-09	2.283613e-01
9.712838039972448e-09	2.295614e-01
9.753251083694563e-09	2.316672e-01
9.781230499694551e-09	2.331300e-01
9.805704445211974e-09	2.344120e-01
9.830178390729398e-09	2.356967e-01
9.854652336246821e-09	2.369841e-01
9.879126281764245e-09	2.382742e-01
9.903600227281668e-09	2.395670e-01
9.928074172799092e-09	2.408624e-01
9.952548118316515e-09	2.421606e-01
9.954857081139559e-09	2.422832e-01
9.979014473820342e-09	2.435674e-01
1.000317186650112e-08	2.448541e-01
1.002732925918191e-08	2.461433e-01
1.005148665186269e-08	2.474349e-01
1.007564404454347e-08	2.487290e-01
1.009980143722426e-08	2.500256e-01
1.012395882990504e-08	2.513247e-01
1.015441768836820e-08	2.529658e-01
1.018487654683136e-08	2.546105e-01
1.021533540529452e-08	2.562589e-01
1.024579426375768e-08	2.579109e-01
1.027625312222084e-08	2.595665e-01
1.030671198068400e-08	2.612257e-01
1.033717083914716e-08	2.628886e-01
1.039271433714162e-08	2.659300e-01
1.044825783513608e-08	2.689831e-01
1.050380133313054e-08	2.720478e-01
1.055934483112499e-08	2.751242e-01
1.061488832911945e-08	2.782123e-01
1.067043182711391e-08	2.813120e-01
1.072597532510837e-08	2.844234e-01
1.075158386128709e-08	2.858612e-01
1.075358452817606e-08	2.859735e-01
1.076558852950985e-08	2.866486e-01
1.079302624684453e-08	2.881933e-01
1.082046396417922e-08	2.897404e-01
1.084790168151390e-08	2.912900e-01
1.087533939884859e-08	2.928420e-01
1.090277711618327e-08	2.943965e-01
1.093021483351795e-08	2.959534e-01
1.095765255085264e-08	2.975128e-01
1.098537607764526e-08	2.990909e-01
1.101309960443788e-08	3.006711e-01
1.104082313123050e-08	3.022534e-01
1.106854665802313e-08	3.038379e-01
1.109627018481575e-08	3.054245e-01
1.112399371160837e-08	3.070133e-01
1.115171723840099e-08	3.086042e-01
1.115371790596866e-08	3.087190e-01
1.116572191137464e-08	3.094086e-01
1.119315973982195e-08	3.109859e-01
1.122059756826927e-08	3.125651e-01
1.124803539671659e-08	3.141460e-01
1.127547322516390e-08	3.157287e-01
1.130291105361122e-08	3.173132e-01
1.133034888205854e-08	3.188995e-01
1.135778671050586e-08	3.204875e-01
1.137150545747832e-08	3.212823e-01
1.138522420445078e-08	3.220774e-01
1.139894295142325e-08	3.228730e-01
1.141266169839571e-08	3.236690e-01
1.142638044536817e-08	3.244654e-01
1.144009919234064e-08	3.252623e-01
1.145381793931310e-08	3.260596e-01
1.148169592277887e-08	3.276815e-01
1.155385128376125e-08	3.318869e-01
1.158501309171994e-08	3.337070e-01
1.161070528408326e-08	3.352091e-01
1.163639747644657e-08	3.367127e-01
1.166208966880989e-08	3.382179e-01
1.168778186117321e-08	3.397245e-01
1.171347405353653e-08	3.412326e-01
1.173916624589985e-08	3.427423e-01
1.176485843826316e-08	3.442535e-01
1.181331218682929e-08	3.471077e-01
1.186176593539542e-08	3.499677e-01
1.191021968396155e-08	3.528335e-01
1.195867343252768e-08	3.557051e-01
1.200712718109381e-08	3.585825e-01
1.205558092965994e-08	3.614656e-01
1.210403467822607e-08	3.643546e-01
1.210709385413617e-08	3.645371e-01
1.213595230845169e-08	3.662608e-01
1.216481076276720e-08	3.679863e-01
1.219366921708272e-08	3.697137e-01
1.222252767139823e-08	3.714430e-01
1.225138612571375e-08	3.731742e-01
1.228024458002927e-08	3.749073e-01
1.230910303434478e-08	3.766422e-01
1.245815271757253e-08	3.856296e-01
1.247187157623971e-08	3.864590e-01
1.248559043490688e-08	3.872888e-01
1.249930929357405e-08	3.881188e-01
1.251302815224123e-08	3.889491e-01
1.252674701090840e-08	3.897798e-01
1.254046586957557e-08	3.906108e-01
1.255418472824275e-08	3.914421e-01
1.256618872957598e-08	3.921698e-01
1.260705949584325e-08	3.946489e-01
1.264793026211051e-08	3.971309e-01
1.268880102837777e-08	3.996155e-01
1.272967179464504e-08	4.021029e-01
1.277054256091230e-08	4.045930e-01
1.281141332717957e-08	4.070858e-01
1.285228409344683e-08	4.095814e-01
1.285428476158720e-08	4.097036e-01
1.286628877042938e-08	4.104373e-01
1.289315486757997e-08	4.120799e-01
1.292002096473055e-08	4.137236e-01
1.294688706188114e-08	4.153685e-01
1.297375315903173e-08	4.170145e-01
1.300061925618232e-08	4.186616e-01
1.302748535333291e-08	4.203099e-01
1.305435145048349e-08	4.219593e-01
1.308237087822384e-08	4.236806e-01
1.315438479493164e-08	4.281094e-01
1.318215194030034e-08	4.298190e-01
1.325649702347279e-08	4.344031e-01
1.333084210664524e-08	4.389911e-01
1.340518718981769e-08	4.435832e-01
1.347953227299015e-08	4.481792e-01
1.355387735616260e-08	4.527793e-01
1.362822243933505e-08	4.573834e-01
1.370256752250750e-08	4.619915e-01
1.370856952317439e-08	4.623634e-01
1.372228838184157e-08	4.632134e-01
1.373600724050874e-08	4.640634e-01
1.374972609917592e-08	4.649134e-01
1.376344495784309e-08	4.657635e-01
1.377716381651027e-08	4.666135e-01
1.379088267517744e-08	4.674636e-01
1.380460153384462e-08	4.683137e-01
1.383261087028994e-08	4.700492e-01
1.384261420473474e-08	4.706691e-01
1.385261753917954e-08	4.712889e-01
1.386262087362434e-08	4.719088e-01
1.387262420806914e-08	4.725286e-01
1.388262754251394e-08	4.731485e-01
1.389263087695874e-08	4.737683e-01
1.390263421140353e-08	4.743882e-01
1.390463487829276e-08	4.745122e-01
1.391663887962813e-08	4.752560e-01
1.394407659700590e-08	4.769563e-01
1.397151431438367e-08	4.786566e-01
1.399895203176145e-08	4.803569e-01
1.402638974913922e-08	4.820573e-01
1.405382746651699e-08	4.837577e-01
1.408126518389476e-08	4.854582e-01
1.410870290127253e-08	4.871588e-01
1.412242175989606e-08	4.880091e-01
1.413614061851958e-08	4.888593e-01
1.414985947714311e-08	4.897096e-01
1.416357833576664e-08	4.905599e-01
1.417729719439016e-08	4.914102e-01
1.419101605301369e-08	4.922605e-01
1.420473491163722e-08	4.931108e-01
1.423274419675173e-08	4.948468e-01
1.425732382586342e-08	4.963703e-01
1.428190345497510e-08	4.978936e-01
1.430648308408678e-08	4.994169e-01
1.433106271319846e-08	5.009400e-01
1.435564234231015e-08	5.024631e-01
1.438022197142183e-08	5.039861e-01
1.440480160053351e-08	5.055090e-01
1.441679293045232e-08	5.062519e-01
1.444354880872733e-08	5.079094e-01
1.447030468700235e-08	5.095666e-01
1.449706056527736e-08	5.112235e-01
1.452381644355237e-08	5.128801e-01
1.455057232182738e-08	5.145363e-01
1.457732820010239e-08	5.161923e-01
1.460408407837740e-08	5.178480e-01
1.460486828942981e-08	5.178965e-01
1.460957355574427e-08	5.181876e-01
1.465767613560316e-08	5.211627e-01
1.470796304195220e-08	5.242719e-01
1.475824994830124e-08	5.273786e-01
1.480853685465028e-08	5.304826e-01
1.485882376099933e-08	5.335840e-01
1.490911066734837e-08	5.366829e-01
1.495939757369741e-08	5.397792e-01
1.500968448004646e-08	5.428728e-01
1.507332265678826e-08	5.467833e-01
1.513696083353006e-08	5.506864e-01
1.520059901027187e-08	5.545821e-01
1.526423718701367e-08	5.584705e-01
1.532787536375547e-08	5.623516e-01
1.539151354049728e-08	5.662252e-01
1.545515171723908e-08	5.700915e-01
1.547015671890630e-08	5.710014e-01
1.551774400990802e-08	5.738845e-01
1.556533130090974e-08	5.767617e-01
1.561291859191146e-08	5.796330e-01
1.566050588291318e-08	5.824985e-01
1.570809317391490e-08	5.853581e-01
1.575568046491662e-08	5.882119e-01
1.580326775591834e-08	5.910597e-01
1.580926975658614e-08	5.914184e-01
1.582298861525323e-08	5.922378e-01
1.583670747392031e-08	5.930567e-01
1.585042633258740e-08	5.938750e-01
1.586414519125449e-08	5.946928e-01
1.587786404992158e-08	5.955100e-01
1.589158290858866e-08	5.963267e-01
1.590530176725575e-08	5.971428e-01
1.591730576854562e-08	5.978563e-01
1.593159624648075e-08	5.987052e-01
1.594588672441588e-08	5.995535e-01
1.596017720235102e-08	6.004012e-01
1.597446768028615e-08	6.012482e-01
1.598875815822128e-08	6.020946e-01
1.600304863615641e-08	6.029403e-01
1.601733911409155e-08	6.037854e-01
1.603048635229262e-08	6.045623e-01
1.604363359049369e-08	6.053386e-01
1.605678082869476e-08	6.061144e-01
1.606992806689584e-08	6.068896e-01
1.608307530509691e-08	6.076642e-01
1.609622254329798e-08	6.084383e-01
1.610936978149905e-08	6.092118e-01
1.620340103254018e-08	6.147265e-01
1.620540180060020e-08	6.148435e-01
1.620940333672024e-08	6.150775e-01
1.622369309184813e-08	6.159125e-01
1.623798284697602e-08	6.167469e-01
1.625227260210391e-08	6.175805e-01
1.626656235723180e-08	6.184133e-01
1.628085211235969e-08	6.192455e-01
1.629514186748759e-08	6.200770e-01
1.630943162261547e-08	6.209077e-01
1.632285704053868e-08	6.216874e-01
1.633628245846189e-08	6.224665e-01
1.634970787638510e-08	6.232449e-01
1.636313329430830e-08	6.240226e-01
1.637655871223151e-08	6.247997e-01
1.638998413015472e-08	6.255761e-01
1.640340954807793e-08	6.263519e-01
1.640546848949650e-08	6.264709e-01
1.641782213800794e-08	6.271839e-01
1.643026179768772e-08	6.279013e-01
1.644270145736749e-08	6.286182e-01
1.645514111704726e-08	6.293344e-01
1.646758077672703e-08	6.300502e-01
1.648002043640681e-08	6.307653e-01
1.649246009608658e-08	6.314798e-01
1.650489975576635e-08	6.321938e-01
1.650550183394465e-08	6.322283e-01
1.650670599030125e-08	6.322974e-01
1.650911430301444e-08	6.324355e-01
1.653073855616288e-08	6.336747e-01
1.655236280931132e-08	6.349120e-01
1.657398706245975e-08	6.361474e-01
1.659561131560819e-08	6.373810e-01
1.661723556875663e-08	6.386127e-01
1.663885982190506e-08	6.398425e-01
1.666048407505350e-08	6.410705e-01
1.670236509534191e-08	6.434433e-01
1.674424611563032e-08	6.458087e-01
1.678612713591872e-08	6.481666e-01
1.682800815620713e-08	6.505170e-01
1.686988917649554e-08	6.528599e-01
1.691177019678395e-08	6.551954e-01
1.695365121707236e-08	6.575235e-01
1.696879912351738e-08	6.583634e-01
1.698394702996241e-08	6.592023e-01
1.699909493640743e-08	6.600403e-01
1.701424284285246e-08	6.608772e-01
1.702939074929748e-08	6.617132e-01
1.704453865574250e-08	6.625481e-01
1.705968656218753e-08	6.633821e-01
1.707397703996536e-08	6.641677e-01
1.708826751774319e-08	6.649524e-01
1.710255799552102e-08	6.657362e-01
1.711684847329885e-08	6.665191e-01
1.713113895107668e-08	6.673011e-01
1.714542942885452e-08	6.680822e-01
1.715971990663235e-08	6.688623e-01
1.723031304927069e-08	6.727026e-01
1.730090619190902e-08	6.765188e-01
1.737149933454736e-08	6.803109e-01
1.744209247718570e-08	6.840789e-01
1.751268561982403e-08	6.878229e-01
1.758327876246237e-08	6.915427e-01
1.765387190510071e-08	6.952385e-01
1.775170767671414e-08	7.003195e-01
1.784954344832758e-08	7.053501e-01
1.794737921994101e-08	7.103304e-01
1.804521499155445e-08	7.152603e-01
1.814305076316788e-08	7.201400e-01
1.824088653478132e-08	7.249693e-01
1.833872230639475e-08	7.297482e-01
1.839122417859606e-08	7.322909e-01
1.844372605079737e-08	7.348182e-01
1.849622792299869e-08	7.373302e-01
1.854872979520000e-08	7.398270e-01
1.860123166740131e-08	7.423084e-01
1.865373353960262e-08	7.447745e-01
1.870623541180393e-08	7.472253e-01
1.897872624208074e-08	7.596930e-01
1.900433477825951e-08	7.608433e-01
1.900633544514838e-08	7.609331e-01
1.901833944648161e-08	7.614704e-01
1.911037012337887e-08	7.655645e-01
1.920440146720870e-08	7.696967e-01
1.920640213404468e-08	7.697841e-01
1.921840613506059e-08	7.703075e-01
1.926356550964151e-08	7.722702e-01
1.930872488422242e-08	7.742208e-01
1.935388425880334e-08	7.761593e-01
1.939904363338426e-08	7.780857e-01
1.944420300796518e-08	7.800001e-01
1.948936238254610e-08	7.819024e-01
1.953452175712701e-08	7.837926e-01
1.955875384034486e-08	7.848021e-01
1.958298592356270e-08	7.858081e-01
1.960721800678055e-08	7.868105e-01
1.963145008999839e-08	7.878094e-01
1.965568217321624e-08	7.888048e-01
1.967991425643408e-08	7.897966e-01
1.970414633965193e-08	7.907849e-01
1.970656885628543e-08	7.908836e-01
1.972110395608645e-08	7.914742e-01
1.974117198907739e-08	7.922880e-01
1.976124002206834e-08	7.930993e-01
1.978130805505928e-08	7.939083e-01
1.980137608805023e-08	7.947148e-01
1.982144412104118e-08	7.955189e-01
1.984151215403212e-08	7.963205e-01
1.986158018702307e-08	7.971197e-01
1.988230714453833e-08	7.979426e-01
1.990303410205359e-08	7.987628e-01
1.992376105956885e-08	7.995805e-01
1.994448801708410e-08	8.003956e-01
1.996521497459936e-08	8.012081e-01
1.998594193211462e-08	8.020180e-01
2.000666888962988e-08	8.028254e-01
2.002401608061919e-08	8.034990e-01
2.004136327160850e-08	8.041707e-01
2.005871046259780e-08	8.048406e-01
2.007605765358711e-08	8.055086e-01
2.009340484457642e-08	8.061748e-01
2.011075203556573e-08	8.068392e-01
2.012809922655504e-08	8.075017e-01
2.015671890630210e-08	8.085914e-01
2.019095409426532e-08	8.098871e-01
2.022950640557377e-08	8.113384e-01
2.026805871688222e-08	8.127805e-01
2.030661102819067e-08	8.142135e-01
2.034516333949912e-08	8.156372e-01
2.038371565080757e-08	8.170519e-01
2.042226796211601e-08	8.184573e-01
2.046082027342446e-08	8.198535e-01
2.055485161720559e-08	8.232205e-01
2.055685228409470e-08	8.232916e-01
2.056085361787293e-08	8.234335e-01
2.057428666698502e-08	8.239094e-01
2.058771971609711e-08	8.243843e-01
2.060115276520920e-08	8.248580e-01
2.061458581432128e-08	8.253306e-01
2.062801886343337e-08	8.258022e-01
2.064145191254546e-08	8.262727e-01
2.065488496165755e-08	8.267421e-01
2.065688562854285e-08	8.268119e-01
2.066888962985467e-08	8.272299e-01
2.095498494441754e-08	8.369321e-01
2.096098709682683e-08	8.371302e-01
2.100310097689956e-08	8.385134e-01
2.104521485697230e-08	8.398855e-01
2.108732873704503e-08	8.412464e-01
2.112944261711777e-08	8.425962e-01
2.117155649719050e-08	8.439348e-01
2.121367037726324e-08	8.452623e-01
2.125578425733597e-08	8.465786e-01
2.138044080677208e-08	8.504083e-01
2.140709425487742e-08	8.512151e-01
2.140713571190397e-08	8.512163e-01
2.140721862595706e-08	8.512188e-01
2.140738445406325e-08	8.512238e-01
2.140771611027561e-08	8.512338e-01
2.140837942270035e-08	8.512538e-01
2.140970604754983e-08	8.512938e-01
2.148144242395967e-08	8.534400e-01
2.155317880036952e-08	8.555535e-01
2.162491517677937e-08	8.576342e-01
2.169665155318921e-08	8.596822e-01
2.176838792959906e-08	8.616974e-01
2.184012430600891e-08	8.636798e-01
